
  0.00000000  36500856.00
  0.01000000  42185032.00
  0.02000000  42986212.00
  0.03000000  38974468.00
  0.04000000  31831636.00
  0.05000000  24198312.00
  0.06000000  19882328.00
  0.07000000  18905182.00
  0.08000000  19558108.00
  0.09000000  20831296.00
  0.10000000  22353338.00
  0.11000000  23850668.00
  0.12000000  25294658.00
  0.13000000  26679542.00
  0.14000000  27989640.00
  0.15000000  29265990.00
  0.16000000  30604754.00
  0.17000000  31731576.00
  0.18000000  32864318.00
  0.19000000  33948000.00
  0.20000000  35030824.00
  0.21000000  36105296.00
  0.22000000  36991272.00
  0.23000000  37975500.00
  0.24000000  38923800.00
  0.25000000  39750688.00
  0.26000000  40597020.00
  0.27000000  41473488.00
  0.28000000  42291232.00
  0.29000000  42984896.00
  0.30000000  43815752.00
  0.31000000  44437500.00
  0.32000000  45149696.00
  0.33000000  45874780.00
  0.34000000  46680356.00
  0.35000000  47302048.00
  0.36000000  47924484.00
  0.37000000  48446096.00
  0.38000000  49262824.00
  0.39000000  49728976.00
  0.40000000  50290944.00
  0.41000000  50920408.00
  0.42000000  51280828.00
  0.43000000  51697320.00
  0.44000000  52179564.00
  0.45000000  52505500.00
  0.46000000  52534280.00
  0.47000000  51926932.00
  0.48000000  50056176.00
  0.49000000  46840640.00
  0.50000000  42467600.00
  0.51000000  37471944.00
  0.52000000  32606026.00
  0.53000000  27654944.00
  0.54000000  22911272.00
  0.55000000  19051142.00
  0.56000000  16065014.00
  0.57000000  13832931.00
  0.58000000  12205612.00
  0.59000000  10524938.00
  0.60000000  9205504.00
  0.61000000  8390531.00
  0.62000000  7739651.00
  0.63000000  6873405.50
  0.64000000  6060857.50
  0.65000000  5538776.50
  0.66000000  5167124.00
  0.67000000  4776606.00
  0.68000000  4317527.00
  0.69000000  3892813.25
  0.70000000  3593548.50
  0.71000000  3375169.25
  0.72000000  3155595.50
  0.73000000  2878327.25
  0.74000000  2620166.75
  0.75000000  2427833.00
  0.76000000  2306073.00
  0.77000000  2196759.50
  0.78000000  2069271.38
  0.79000000  1891374.00
  0.80000000  1716616.00
  0.81000000  1589306.00
  0.82000000  1527304.75
  0.83000000  1480968.00
  0.84000000  1423738.75
  0.85000000  1329740.00
  0.86000000  1204477.13
  0.87000000  1096674.88
  0.88000000  1029130.81
  0.89000000  1002971.81
  0.90000000  991021.19
  0.91000000  966039.13
  0.92000000  901266.63
  0.93000000  817888.94
  0.94000000  736857.19
  0.95000000  693622.63
  0.96000000  678114.63
  0.97000000  678965.06
  0.98000000  666966.44
  0.99000000  637420.63
  1.00000000  581693.56
  1.01000000  523975.31
  1.02000000  481647.50
  1.03000000  467731.72
  1.04000000  467589.13
  1.05000000  471127.00
  1.06000000  460692.44
  1.07000000  431592.06
  1.08000000  389123.06
  1.09000000  353176.50
  1.10000000  329968.53
  1.11000000  326443.63
  1.12000000  331719.63
  1.13000000  334131.81
  1.14000000  323706.00
  1.15000000  299968.53
  1.16000000  271431.31
  1.17000000  245768.44
  1.18000000  233848.73
  1.19000000  232702.97
  1.20000000  237336.22
  1.21000000  241262.52
  1.22000000  234419.59
  1.23000000  217089.27
  1.24000000  193935.13
  1.25000000  177166.30
  1.26000000  169457.63
  1.27000000  171456.80
  1.28000000  175523.42
  1.29000000  177964.73
  1.30000000  172361.92
  1.31000000  158930.80
  1.32000000  142220.52
  1.33000000  130114.18
  1.34000000  124831.27
  1.35000000  126299.73
  1.36000000  130870.59
  1.37000000  133383.64
  1.38000000  129276.20
  1.39000000  119980.19
  1.40000000  108184.02
  1.41000000  97387.27
  1.42000000  93174.73
  1.43000000  94866.01
  1.44000000  98267.77
  1.45000000  100686.22
  1.46000000  98913.43
  1.47000000  92300.91
  1.48000000  83446.24
  1.49000000  75643.21
  1.50000000  70476.25
  1.51000000  70769.99
  1.52000000  74143.50
  1.53000000  75880.67
  1.54000000  75757.17
  1.55000000  72012.21
  1.56000000  64708.70
  1.57000000  58644.77
  1.58000000  54400.28
  1.59000000  53770.61
  1.60000000  56240.66
  1.61000000  58601.45
  1.62000000  58951.68
  1.63000000  56419.92
  1.64000000  51843.16
  1.65000000  46054.52
  1.66000000  42330.93
  1.67000000  41669.52
  1.68000000  43058.27
  1.69000000  45181.11
  1.70000000  46219.29
  1.71000000  45542.00
  1.72000000  41731.52
  1.73000000  37271.91
  1.74000000  33750.34
  1.75000000  32598.11
  1.76000000  33090.13
  1.77000000  34536.01
  1.78000000  36069.74
  1.79000000  35670.53
  1.80000000  33747.67
  1.81000000  30485.11
  1.82000000  27315.86
  1.83000000  25650.08
  1.84000000  25853.20
  1.85000000  27056.93
  1.86000000  28228.96
  1.87000000  28756.27
  1.88000000  27619.40
  1.89000000  25193.20
  1.90000000  22266.59
  1.91000000  20159.60
  1.92000000  19929.37
  1.93000000  20753.87
  1.94000000  22008.44
  1.95000000  23041.06
  1.96000000  22559.91
  1.97000000  20598.19
  1.98000000  18766.71
  1.99000000  16777.69
  2.00000000  16083.43
  2.01000000  16167.36
  2.02000000  17118.42
  2.03000000  17975.85
  2.04000000  18538.73
  2.05000000  17674.50
  2.06000000  15788.10
  2.07000000  13791.88
  2.08000000  12703.37
  2.09000000  12832.35
  2.10000000  13404.65
  2.11000000  14317.24
  2.12000000  14941.99
  2.13000000  14480.17
  2.14000000  13311.22
  2.15000000  11909.61
  2.16000000  10582.37
  2.17000000  10027.27
  2.18000000  10423.33
  2.19000000  11304.86
  2.20000000  12031.14
  2.21000000  12059.42
  2.22000000  11222.54
  2.23000000  10105.64
  2.24000000  8981.40
  2.25000000  8258.99
  2.26000000  8412.11
  2.27000000  8648.90
  2.28000000  9370.76
  2.29000000  9843.21
  2.30000000  9516.04
  2.31000000  8861.28
  2.32000000  7739.53
  2.33000000  7044.11
  2.34000000  6618.06
  2.35000000  6976.57
  2.36000000  7456.89
  2.37000000  8065.40
  2.38000000  8018.38
  2.39000000  7537.24
  2.40000000  6490.17
  2.41000000  5923.94
  2.42000000  5367.57
  2.43000000  5374.88
  2.44000000  5800.46
  2.45000000  6427.91
  2.46000000  6558.96
  2.47000000  6513.42
  2.48000000  5760.73
  2.49000000  5052.63
  2.50000000  4597.69
  2.51000000  4279.80
  2.52000000  4678.23
  2.53000000  5035.19
  2.54000000  5231.41
  2.55000000  5226.58
  2.56000000  5047.64
  2.57000000  4422.96
  2.58000000  3993.24
  2.59000000  3547.01
  2.60000000  3624.62
  2.61000000  3941.52
  2.62000000  4343.60
  2.63000000  4524.04
  2.64000000  4324.22
  2.65000000  3983.14
  2.66000000  3531.24
  2.67000000  3012.54
  2.68000000  2918.74
  2.69000000  2990.57
  2.70000000  3416.70
  2.71000000  3757.97
  2.72000000  3713.22
  2.73000000  3463.79
  2.74000000  3052.93
  2.75000000  2607.22
  2.76000000  2397.51
  2.77000000  2402.58
  2.78000000  2596.09
  2.79000000  2866.77
  2.80000000  3095.73
  2.81000000  2929.42
  2.82000000  2693.35
  2.83000000  2358.06
  2.84000000  2071.01
  2.85000000  1984.75
  2.86000000  2110.44
  2.87000000  2327.36
  2.88000000  2524.76
  2.89000000  2514.43
  2.90000000  2418.48
  2.91000000  2175.76
  2.92000000  1850.26
  2.93000000  1644.01
  2.94000000  1612.44
  2.95000000  1760.82
  2.96000000  2000.60
  2.97000000  2118.20
  2.98000000  2034.14
  2.99000000  1910.32
  3.00000000  1687.79
  3.01000000  1344.32
  3.02000000  1413.49
  3.03000000  1384.75
  3.04000000  1532.60
  3.05000000  1682.83
  3.06000000  1756.00
  3.07000000  1649.26
  3.08000000  1432.35
  3.09000000  1199.74
  3.10000000  1155.27
  3.11000000  1098.50
  3.12000000  1182.67
  3.13000000  1307.33
  3.14000000  1439.29
  3.15000000  1373.14
  3.16000000  1280.33
  3.17000000  1146.99
  3.18000000  924.83
  3.19000000  935.05
  3.20000000  934.22
  3.21000000  1050.01
  3.22000000  1149.45
  3.23000000  1241.95
  3.24000000  1177.76
  3.25000000  1033.08
  3.26000000  888.36
  3.27000000  764.87
  3.28000000  750.36
  3.29000000  847.86
  3.30000000  953.72
  3.31000000  996.71
  3.32000000  977.48
  3.33000000  901.42
  3.34000000  818.84
  3.35000000  715.18
  3.36000000  661.38
  3.37000000  631.97
  3.38000000  766.17
  3.39000000  786.54
  3.40000000  853.51
  3.41000000  800.24
  3.42000000  796.26
  3.43000000  612.45
  3.44000000  587.45
  3.45000000  539.23
  3.46000000  586.50
  3.47000000  645.98
  3.48000000  681.83
  3.49000000  710.89
  3.50000000  611.83
  3.51000000  595.35
  3.52000000  519.84
  3.53000000  435.79
  3.54000000  455.30
  3.55000000  488.54
  3.56000000  575.18
  3.57000000  607.88
  3.58000000  585.80
  3.59000000  527.69
  3.60000000  448.05
  3.61000000  435.81
  3.62000000  371.17
  3.63000000  409.10
  3.64000000  406.80
  3.65000000  487.23
  3.66000000  500.27
  3.67000000  490.64
  3.68000000  379.85
  3.69000000  341.89
  3.70000000  313.70
  3.71000000  313.74
  3.72000000  347.94
  3.73000000  401.58
  3.74000000  412.94
  3.75000000  430.51
  3.76000000  363.61
  3.77000000  328.50
  3.78000000  273.22
  3.79000000  279.04
  3.80000000  274.40
  3.81000000  297.28
  3.82000000  378.26
  3.83000000  359.48
  3.84000000  342.70
  3.85000000  320.65
  3.86000000  235.33
  3.87000000  205.26
  3.88000000  200.47
  3.89000000  240.83
  3.90000000  279.51
  3.91000000  287.48
  3.92000000  278.21
  3.93000000  267.02
  3.94000000  245.83
  3.95000000  178.80
  3.96000000  167.56
  3.97000000  179.26
  3.98000000  187.22
  3.99000000  229.29
  4.00000000  257.94
  4.01000000  253.27
  4.02000000  229.59
  4.03000000  165.00
  4.04000000  149.18
  4.05000000  130.28
  4.06000000  159.65
  4.07000000  160.69
  4.08000000  193.14
  4.09000000  190.81
  4.10000000  192.94
  4.11000000  181.15
  4.12000000  138.84
  4.13000000  114.17
  4.14000000  127.22
  4.15000000  143.82
  4.16000000  163.50
  4.17000000  169.48
  4.18000000  178.63
  4.19000000  145.14
  4.20000000  127.16
  4.21000000  103.63
  4.22000000  110.62
  4.23000000  109.28
  4.24000000  88.24
  4.25000000  138.99
  4.26000000  136.52
  4.27000000  127.11
  4.28000000  131.78
  4.29000000  102.37
  4.30000000  89.83
  4.31000000  92.02
  4.32000000  115.51
  4.33000000  118.86
  4.34000000  111.31
  4.35000000  110.58
  4.36000000  101.37
  4.37000000  72.26
  4.38000000  69.98
  4.39000000  65.30
  4.40000000  82.32
  4.41000000  74.14
  4.42000000  93.02
  4.43000000  99.02
  4.44000000  112.25
  4.45000000  86.19
  4.46000000  79.02
  4.47000000  60.25
  4.48000000  61.42
  4.49000000  70.21
  4.50000000  70.98
  4.51000000  97.90
  4.52000000  80.51
  4.53000000  76.24
  4.54000000  66.24
  4.55000000  60.78
  4.56000000  53.99
  4.57000000  37.13
  4.58000000  48.99
  4.59000000  74.32
  4.60000000  73.61
  4.61000000  89.91
  4.62000000  81.76
  4.63000000  58.32
  4.64000000  48.10
  4.65000000  54.33
  4.66000000  47.73
  4.67000000  65.91
  4.68000000  58.09
  4.69000000  47.33
  4.70000000  57.98
  4.71000000  42.03
  4.72000000  38.99
  4.73000000  35.44
  4.74000000  21.32
  4.75000000  39.01
  4.76000000  40.90
  4.77000000  54.35
  4.78000000  50.06
  4.79000000  46.26
  4.80000000  42.57
  4.81000000  31.68
  4.82000000  34.94
  4.83000000  27.89
  4.84000000  34.09
  4.85000000  42.31
  4.86000000  49.77
  4.87000000  39.53
  4.88000000  35.03
  4.89000000  34.74
  4.90000000  25.81
  4.91000000  31.46
  4.92000000  23.64
  4.93000000  32.86
  4.94000000  41.10
  4.95000000  44.19
  4.96000000  37.48
  4.97000000  24.77
  4.98000000  27.47
  4.99000000  26.03
  5.00000000  16.43
  5.01000000  30.64
  5.02000000  23.43
  5.03000000  34.11
  5.04000000  26.69
  5.05000000  30.89
  5.06000000  29.88
  5.07000000  18.39
  5.08000000  13.56
  5.09000000  21.09
  5.10000000  21.38
  5.11000000  34.97
  5.12000000  28.46
  5.13000000  34.66
  5.14000000  23.10
  5.15000000  18.29
  5.16000000  15.25
  5.17000000  18.08
  5.18000000  12.67
  5.19000000  9.15
  5.20000000  20.75
  5.21000000  27.07
  5.22000000  32.23
  5.23000000  15.15
  5.24000000  14.69
  5.25000000  14.09
  5.26000000  17.56
  5.27000000  13.24
  5.28000000  25.58
  5.29000000  14.85
  5.30000000  22.66
  5.31000000  15.65
  5.32000000  10.17
  5.33000000  15.68
  5.34000000  13.10
  5.35000000  9.86
  5.36000000  13.13
  5.37000000  14.29
  5.38000000  20.81
  5.39000000  11.16
  5.40000000  10.15
  5.41000000  9.04
  5.42000000  5.51
  5.43000000  17.38
  5.44000000  14.72
  5.45000000  12.92
  5.46000000  20.69
  5.47000000  21.88
  5.48000000  16.60
  5.49000000  11.63
  5.50000000  15.35
  5.51000000  13.58
  5.52000000  13.09
  5.53000000  11.17
  5.54000000  20.58
  5.55000000  13.76
  5.56000000  15.97
  5.57000000  8.52
  5.58000000  16.63
  5.59000000  13.36
  5.60000000  13.57
  5.61000000  6.37
  5.62000000  9.23
  5.63000000  11.60
  5.64000000  11.77
  5.65000000  9.78
  5.66000000  11.01
  5.67000000  13.80
  5.68000000  7.08
  5.69000000  14.17
  5.70000000  9.54
  5.71000000  10.77
  5.72000000  12.20
  5.73000000  9.65
  5.74000000  10.63
  5.75000000  6.32
  5.76000000  8.76
  5.77000000  8.64
  5.78000000  6.55
  5.79000000  10.68
  5.80000000  9.41
  5.81000000  11.56
  5.82000000  11.76
  5.83000000  3.93
  5.84000000  6.90
  5.85000000  8.42
  5.86000000  8.90
  5.87000000  7.83
  5.88000000  3.37
  5.89000000  12.32
  5.90000000  6.75
  5.91000000  1.66
  5.92000000  5.92
  5.93000000  11.00
  5.94000000  3.83
  5.95000000  7.38
  5.96000000  6.31
  5.97000000  4.29
  5.98000000  5.68
  5.99000000  6.90
  6.00000000  5.09
  6.01000000  8.14
  6.02000000  6.80
  6.03000000  4.01
  6.04000000  10.39
  6.05000000  4.82
  6.06000000  5.39
  6.07000000  5.80
  6.08000000  14.91
  6.09000000  8.77
  6.10000000  4.18
  6.11000000  4.19
  6.12000000  9.12
  6.13000000  3.68
  6.14000000  9.24
  6.15000000  7.67
  6.16000000  4.94
  6.17000000  6.68
  6.18000000  4.83
  6.19000000  7.79
  6.20000000  3.52
  6.21000000  4.49
  6.22000000  3.29
  6.23000000  4.00
  6.24000000  9.21
  6.25000000  4.36
  6.26000000  7.34
  6.27000000  4.75
  6.28000000  5.12
  6.29000000  6.81
  6.30000000  5.50
  6.31000000  4.54
  6.32000000  4.44
  6.33000000  1.63
  6.34000000  5.87
  6.35000000  3.18
  6.36000000  6.28
  6.37000000  0.86
  6.38000000  4.24
  6.39000000  3.50
  6.40000000  3.44
  6.41000000  9.17
  6.42000000  6.41
  6.43000000  2.29
  6.44000000  3.15
  6.45000000  1.08
  6.46000000  2.31
  6.47000000  0.76
  6.48000000  1.51
  6.49000000  6.29
  6.50000000  3.37
  6.51000000  1.88
  6.52000000  4.66
  6.53000000  3.96
  6.54000000  2.21
  6.55000000  2.75
  6.56000000  4.65
  6.57000000  8.90
  6.58000000  7.33
  6.59000000  1.54
  6.60000000  2.11
  6.61000000  4.84
  6.62000000  3.40
  6.63000000  4.66
  6.64000000  2.51
  6.65000000  3.14
  6.66000000  10.52
  6.67000000  8.54
  6.68000000  0.77
  6.69000000  4.83
  6.70000000  4.39
  6.71000000  7.94
  6.72000000  3.84
  6.73000000  5.31
  6.74000000  0.81
  6.75000000  2.47
  6.76000000  2.76
  6.77000000  4.98
  6.78000000  4.42
  6.79000000  1.65
  6.80000000  2.10
  6.81000000  4.29
  6.82000000  5.20
  6.83000000  5.47
  6.84000000  4.50
  6.85000000  4.95
  6.86000000  3.29
  6.87000000  4.52
  6.88000000  1.54
  6.89000000  1.57
  6.90000000  1.73
  6.91000000  3.15
  6.92000000  0.00
  6.93000000  4.26
  6.94000000  4.48
  6.95000000  2.56
  6.96000000  0.81
  6.97000000  4.08
  6.98000000  0.91
  6.99000000  6.78
  7.00000000  2.50
